"Time (s)","Acceleration x (m/s^2)","Acceleration y (m/s^2)","Acceleration z (m/s^2)","Absolute acceleration (m/s^2)"
1.511408342E-2,-5.166955261E0,6.642436981E0,5.927523651E0,1.029344123E1
2.515308326E-2,-4.268224182E0,6.418802032E0,8.002808075E0,1.111142179E1
3.519108333E-2,-3.155438232E0,6.167025604E0,1.034034714E1,1.244635586E1
4.522908339E-2,-2.239792328E0,5.803880768E0,1.194875244E1,1.347124295E1
5.526708323E-2,-1.680704956E0,5.521867218E0,1.256621841E1,1.382843563E1
6.530508329E-2,-1.588796082E0,5.320086823E0,1.238734039E1,1.357474857E1
7.534408337E-2,-1.949994965E0,5.186414795E0,1.146196472E1,1.273098637E1
8.538208343E-2,-2.451302490E0,5.162015533E0,1.022044647E1,1.170951811E1
9.542008326E-2,-2.857407990E0,5.293292542E0,8.963959351E0,1.079519771E1
1.054580833E-1,-2.954555969E0,5.535788269E0,7.923772430E0,1.010744885E1
1.154970834E-1,-2.845732269E0,5.803731079E0,7.210056610E0,9.683305371E0
1.255350832E-1,-2.564916229E0,5.994284821E0,6.956932983E0,9.534629637E0
1.355730833E-1,-2.208806763E0,6.013894043E0,7.199877777E0,9.637633988E0
1.456110834E-1,-1.793570251E0,5.841302948E0,7.872279510E0,9.965465321E0
1.556490834E-1,-1.235979767E0,5.577102356E0,8.691076813E0,1.040031407E1
1.656880833E-1,-7.975415039E-1,5.228926392E0,9.270821228E0,1.067360623E1
1.757260833E-1,-5.810916138E-1,4.935386810E0,9.570198669E0,1.078352507E1
1.857640834E-1,-6.542893982E-1,4.778962097E0,9.619895325E0,1.076145712E1
1.958020832E-1,-8.924441528E-1,4.672234039E0,9.437275085E0,1.056827273E1
2.058400833E-1,-1.203497314E0,4.599185944E0,9.033714294E0,1.020827660E1
2.158790834E-1,-1.553619232E0,4.629572754E0,8.562943268E0,9.857518654E0
2.259170834E-1,-1.764680328E0,4.719086609E0,8.124505005E0,9.559887900E0
2.359550833E-1,-1.830094299E0,4.743485870E0,7.702981567E0,9.229616914E0
2.459930833E-1,-1.899699554E0,4.745282135E0,7.299869843E0,8.911490372E0
2.560320834E-1,-2.019899597E0,4.778962097E0,6.930288391E0,8.657214927E0
2.660700832E-1,-2.147584076E0,4.921166382E0,6.721622314E0,8.602918252E0
2.761080833E-1,-2.214045868E0,5.088218994E0,6.607559509E0,8.628546477E0
2.861460834E-1,-2.157613220E0,5.118007050E0,6.528823242E0,8.571745674E0
2.961840834E-1,-2.096989288E0,5.117258606E0,6.628216553E0,8.632320336E0
3.062230833E-1,-2.203867035E0,5.216502228E0,6.890920258E0,8.919288503E0
3.162610834E-1,-2.304158478E0,5.325625305E0,7.176376648E0,9.228857620E0
3.262990834E-1,-2.233804779E0,5.338049469E0,7.418872375E0,9.408736538E0
3.363370833E-1,-2.146236877E0,5.312752075E0,7.524702301E0,9.457949676E0
3.463750833E-1,-2.093995514E0,5.243446198E0,7.509883118E0,9.395578198E0
3.564140834E-1,-2.112556915E0,5.198240204E0,7.485184479E0,9.354816119E0
3.664520832E-1,-2.086960144E0,5.252577209E0,7.573201447E0,9.449780428E0
3.764900833E-1,-1.872456207E0,5.272934875E0,7.653434601E0,9.480769781E0
3.865280834E-1,-1.555565186E0,5.184319153E0,7.620652771E0,9.347261459E0
3.965670834E-1,-1.452729034E0,5.109025726E0,7.451654205E0,9.150940712E0
4.066050833E-1,-1.497935028E0,5.110971680E0,7.249424744E0,8.995554456E0
4.166430833E-1,-1.545685730E0,5.145250397E0,7.123386841E0,8.922185052E0
4.266810834E-1,-1.449585571E0,5.144352264E0,7.085216217E0,8.875018163E0
4.367190832E-1,-1.402882690E0,5.101391602E0,7.078330536E0,8.837139769E0
4.467580833E-1,-1.504221954E0,5.078040161E0,7.076234894E0,8.838680662E0
4.567960834E-1,-1.600322113E0,5.060077515E0,7.082821198E0,8.850523794E0
4.668340834E-1,-1.622476044E0,5.084626465E0,7.106621704E0,8.887627740E0
4.768720833E-1,-1.629062347E0,5.199737091E0,7.202572174E0,9.031509058E0
4.869110833E-1,-1.457519073E0,5.385500793E0,7.274273071E0,9.167498533E0
4.969490834E-1,-1.230740662E0,5.515580292E0,7.256011047E0,9.197067187E0
5.069870832E-1,-1.169967041E0,5.622308350E0,7.195237427E0,9.206009759E0
5.170250833E-1,-1.283431091E0,5.757177887E0,7.177873535E0,9.290541484E0
5.270630834E-1,-1.405128021E0,5.818849640E0,7.177424469E0,9.346058950E0
5.371020834E-1,-1.449735260E0,5.843099213E0,7.196584625E0,9.382663321E0
5.471400833E-1,-1.469643860E0,5.874533844E0,7.229516144E0,9.430583473E0
5.571780833E-1,-1.542991333E0,5.930367737E0,7.312144318E0,9.540311225E0
5.672155833E-1,-1.555415497E0,5.998775482E0,7.478598175E0,9.712572024E0
5.772535834E-1,-1.518592072E0,6.029012604E0,7.618257751E0,9.833258159E0
5.872925834E-1,-1.388961639E0,6.101162567E0,7.777825928E0,9.982383246E0
5.973305833E-1,-1.225501556E0,6.134094086E0,7.963739319E0,1.012670273E1
6.073685833E-1,-1.127904510E0,6.140830078E0,8.133037262E0,1.025320719E1
6.174065834E-1,-1.073567505E0,6.121220856E0,8.351433105E0,1.041001090E1
6.274455832E-1,-9.372010803E-1,6.123466187E0,8.469387817E0,1.049312699E1
6.374835833E-1,-8.454418945E-1,6.097719727E0,8.502618713E0,1.049721310E1
6.475215834E-1,-8.354127502E-1,6.077212372E0,8.514893188E0,1.049446667E1
6.575595834E-1,-8.758287048E-1,6.079757080E0,8.492589569E0,1.048115450E1
6.675975833E-1,-9.488768005E-1,6.083349609E0,8.415350189E0,1.042715822E1
6.776365833E-1,-1.052910461E0,6.019133148E0,8.250542908E0,1.026693930E1
6.876745834E-1,-1.186582489E0,5.829477539E0,7.777825928E0,9.792107155E0
6.977125832E-1,-1.564097443E0,5.683830414E0,8.162226562E0,1.006847910E1
7.077505833E-1,-1.895657959E0,5.436694336E0,8.220605164E0,1.003640940E1
7.177895834E-1,-2.008822632E0,5.091212769E0,8.029602356E0,9.717526939E0
7.278275834E-1,-2.077529755E0,4.575834503E0,7.830216980E0,9.304122164E0
7.378655833E-1,-2.139650574E0,4.170178070E0,7.882458344E0,9.170694589E0
7.479035833E-1,-2.268382874E0,4.058360596E0,8.331075439E0,9.540580148E0
7.579415834E-1,-2.138003998E0,3.946842499E0,8.910969543E0,9.977675331E0
7.679805832E-1,-1.858385468E0,3.785627747E0,9.559121704E0,1.044803243E1
7.780185833E-1,-1.687141571E0,3.604654083E0,1.018826340E1,1.093803862E1
7.880565834E-1,-1.685794373E0,3.402125244E0,1.066606979E1,1.132172265E1
7.980945834E-1,-1.735191650E0,3.224594421E0,1.102202957E1,1.161438914E1
8.081325833E-1,-1.693727875E0,2.987936554E0,1.122845032E1,1.174200049E1
8.181715833E-1,-1.601669312E0,2.633773041E0,1.113354767E1,1.155240186E1
8.282095834E-1,-1.424437866E0,2.282752991E0,1.073612411E1,1.106816812E1
8.382475832E-1,-1.518592072E0,2.017205200E0,9.861343231E0,1.017945622E1
8.482855833E-1,-2.008672943E0,1.871258698E0,9.047785034E0,9.455093343E0
8.583245834E-1,-2.267335052E0,1.744023285E0,8.799301758E0,9.252574608E0
8.683625835E-1,-2.379900970E0,1.708247681E0,8.764723663E0,9.241342958E0
8.784005833E-1,-2.284249878E0,1.719773712E0,8.738528137E0,9.194416411E0
8.884385834E-1,-2.252066803E0,1.847607880E0,8.836873627E0,9.304611505E0
8.984765834E-1,-2.163451080E0,2.011966095E0,9.124575348E0,9.590954250E0
9.085155833E-1,-1.777254181E0,2.013612671E0,9.759255524E0,1.012207176E1
9.185535833E-1,-1.446741486E0,1.903142395E0,1.032058823E1,1.059384506E1
9.285915834E-1,-8.946894836E-1,1.627864838E0,1.052955368E1,1.069214262E1
9.386295835E-1,-2.832110596E-1,1.335373077E0,1.051488419E1,1.060312309E1
9.486685833E-1,1.911524963E-1,1.119521942E0,1.030681686E1,1.036920163E1
9.587065834E-1,4.031117249E-1,9.714797974E-1,9.956096191E0,1.001149956E1
9.687445834E-1,7.038363647E-1,8.542735291E-1,9.866432648E0,9.928326248E0
9.787825833E-1,1.169667664E0,7.812254333E-1,1.002210892E1,1.012033116E1
9.888205833E-1,1.393901367E0,7.861651611E-1,1.014859589E1,1.027399704E1
9.988595834E-1,1.462458801E0,8.819659424E-1,1.038016434E1,1.051971774E1
1.008897583E0,1.558259583E0,1.089135132E0,1.061307999E1,1.078201535E1
1.018935583E0,1.744172974E0,1.315763855E0,1.083566711E1,1.105373492E1
1.028973583E0,1.930685120E0,1.412163391E0,1.097353043E1,1.123121189E1
1.039012583E0,2.041754150E0,1.382375336E0,1.099718124E1,1.127021370E1
1.049050583E0,2.133213959E0,1.349892883E0,1.084449875E1,1.113444950E1
1.059088583E0,2.108066254E0,1.399888916E0,1.059466827E1,1.089268691E1
1.069126583E0,1.588945770E0,1.731299744E0,1.033735336E1,1.060108589E1
1.079164583E0,8.684939575E-1,2.202519836E0,1.003258713E1,1.030816084E1
1.089203583E0,3.209326172E-1,2.648891602E0,9.854457550E0,1.020930742E1
1.099241583E0,-2.784210205E-2,3.005749512E0,9.658365326E0,1.011530158E1
1.109279583E0,-3.059637451E-1,3.340303802E0,9.366771698E0,9.949254010E0
1.119317583E0,-5.511538696E-1,3.617078247E0,8.966653748E0,9.684415577E0
1.129356583E0,-7.788304138E-1,3.844156036E0,8.481213226E0,9.344254397E0
1.139394583E0,-8.990304565E-1,4.054768066E0,8.021668854E0,9.033082034E0
1.149432583E0,-1.039887543E0,4.233795776E0,7.573949890E0,8.739056569E0
1.159470583E0,-1.341360626E0,4.484524384E0,7.211852875E0,8.597733955E0
1.169508583E0,-1.530866547E0,4.824766846E0,6.970404968E0,8.614433987E0
1.179547583E0,-1.673519897E0,5.061574402E0,6.821165314E0,8.657280203E0
1.189585583E0,-1.747017059E0,5.209167480E0,6.786287842E0,8.731620532E0
1.199623583E0,-1.686542816E0,5.317542114E0,6.814279633E0,8.806536647E0
1.209661583E0,-1.603914642E0,5.398823090E0,6.957681427E0,8.951489472E0
1.219700583E0,-1.475332031E0,5.490881653E0,7.129224701E0,9.118784500E0
1.229738583E0,-1.272054749E0,5.566474457E0,7.351512451E0,9.308517416E0
1.239776583E0,-1.061143341E0,5.569168854E0,7.583080902E0,9.468092885E0
1.249814583E0,-8.958869934E-1,5.521717529E0,7.714357910E0,9.529076343E0
1.259852583E0,-8.122109985E-1,5.431155853E0,7.750732269E0,9.498999490E0
1.269891583E0,-9.032217407E-1,5.369334412E0,7.740703125E0,9.463828317E0
1.279929583E0,-1.010997620E0,5.254523163E0,7.650590515E0,9.336148300E0
1.289967583E0,-1.017284546E0,4.994663544E0,7.599396973E0,9.150539116E0
1.300005583E0,-1.458716583E0,5.383105774E0,7.792794800E0,9.582970971E0
1.310044583E0,-1.890119476E0,5.715414734E0,8.127349091E0,1.011396660E1
1.320082583E0,-2.086660767E0,6.069129181E0,8.443192291E0,1.060546926E1
1.330120583E0,-1.875000916E0,6.145171051E0,8.871152344E0,1.095336020E1
1.340158583E0,-1.113983459E0,5.849835205E0,9.368268585E0,1.110072013E1
1.350196583E0,-3.553610229E-1,5.609584808E0,9.889634399E0,1.137535018E1
1.360235583E0,1.505868530E-1,5.558840332E0,1.038585251E1,1.178088768E1
1.370273583E0,6.523434448E-1,5.489833832E0,1.089105194E1,1.221387898E1
1.380311583E0,1.279539185E0,5.377267914E0,1.137349869E1,1.264550130E1
1.390349583E0,1.933678894E0,5.230572968E0,1.171972870E1,1.297883078E1
1.400388583E0,2.388582916E0,5.183271332E0,1.195638657E1,1.324865313E1
1.410426583E0,2.495909729E0,5.255870361E0,1.212568451E1,1.344938524E1
1.420464583E0,2.214644623E0,5.319937134E0,1.206835373E1,1.337353894E1
1.430502583E0,1.706900482E0,5.195246429E0,1.171194489E1,1.292570105E1
1.440541583E0,1.191073151E0,4.861739960E0,1.112202164E1,1.219649687E1
1.450579583E0,7.373666382E-1,4.456831970E0,1.051338730E1,1.144283065E1
1.460617583E0,3.555107117E-1,4.032913513E0,9.948462067E0,1.074070187E1
1.470655583E0,8.382568359E-3,3.671115875E0,9.445807343E0,1.013412248E1
1.480693583E0,-2.267784119E-1,3.410956879E0,9.114097137E0,9.734106118E0
1.490732583E0,-2.775228882E-1,3.222199402E0,8.989556122E0,9.553622727E0
1.500770583E0,-1.595681763E-1,3.124003601E0,9.121731262E0,9.643175915E0
1.510808583E0,4.206253052E-2,3.127296753E0,9.410480804E0,9.916597360E0
1.520846583E0,2.653981018E-1,3.216810608E0,9.670340424E0,1.019479232E1
1.530884583E0,4.439767456E-1,3.283721466E0,9.774374084E0,1.032077181E1
1.540923583E0,4.649331665E-1,3.316353607E0,9.623338165E0,1.018935727E1
1.550961583E0,3.228785706E-1,3.411855011E0,9.303752747E0,9.914878736E0
1.561000125E0,1.604663086E-1,3.611839142E0,8.854836273E0,9.564478911E0
1.571038125E0,-1.886077881E-2,3.801195374E0,8.362659760E0,9.186050307E0
1.581077125E0,-2.275268555E-1,3.926484833E0,7.770491180E0,8.709166711E0
1.591115125E0,-5.267546082E-1,4.029770050E0,7.165299683E0,8.237598959E0
1.601153125E0,-8.557704163E-1,4.159101105E0,6.690187683E0,7.923955845E0
1.611191125E0,-1.193019104E0,4.310137024E0,6.427933044E0,7.830638478E0
1.621229125E0,-1.395547943E0,4.473148041E0,6.365662537E0,7.904319514E0
1.631268125E0,-1.460662537E0,4.649181976E0,6.460116119E0,8.092065767E0
1.641306125E0,-1.452279968E0,4.785398712E0,6.523284760E0,8.219635150E0
1.651344125E0,-1.370549927E0,4.868026886E0,6.540349274E0,8.267542651E0
1.661382125E0,-1.327888641E0,4.894372101E0,6.524182892E0,8.263360631E0
1.671421125E0,-1.338516541E0,4.946014709E0,6.480773163E0,8.261665015E0
1.681459125E0,-1.340911560E0,5.034480743E0,6.441255341E0,8.284552524E0
1.691497125E0,-1.274749146E0,5.158572693E0,6.528823242E0,8.417920797E0
1.701535125E0,-1.167272644E0,5.266498260E0,6.706503754E0,8.606725391E0
1.711574125E0,-1.044378204E0,5.279670868E0,6.881040802E0,8.735809798E0
1.721612125E0,-8.521778870E-1,5.209466858E0,7.040908356E0,8.799951282E0
1.731650125E0,-6.355783081E-1,5.135820007E0,7.213798828E0,8.878034719E0
1.741688125E0,-4.067042542E-1,5.081333313E0,7.411238251E0,8.995099165E0
1.751726125E0,-2.460882568E-1,4.970563660E0,7.541018372E0,9.035154708E0
1.761765125E0,-2.341131592E-1,4.856500854E0,7.582482147E0,9.007466072E0
1.771803125E0,-3.016227722E-1,4.730462952E0,7.598349152E0,8.955622025E0
1.781841125E0,-2.369572449E-1,4.619393921E0,7.671247559E0,8.957845055E0
1.791879125E0,-1.508862305E-1,4.535568237E0,7.718698883E0,8.953907434E0
1.801918125E0,-1.372645569E-1,4.557123413E0,7.736362152E0,8.979839348E0
1.811956125E0,-9.879455566E-2,4.680616608E0,7.751031647E0,9.055187672E0
1.821994125E0,-1.347198486E-3,4.842879181E0,7.676935730E0,9.076828894E0
1.832032125E0,8.951385498E-2,5.010380859E0,7.587421875E0,9.092903815E0
1.842070125E0,1.784289551E-1,5.137466583E0,7.527247009E0,9.115088992E0
1.852109125E0,2.526745605E-1,5.218597870E0,7.490573273E0,9.132704754E0
1.862147125E0,2.767744446E-1,5.240452423E0,7.482340393E0,9.139166453E0
1.872185125E0,2.667453003E-1,5.239404602E0,7.553292847E0,9.196452929E0
1.882223125E0,2.122586060E-1,5.265899506E0,7.657027130E0,9.295419076E0
1.892262125E0,1.350192261E-1,5.268444214E0,7.742948456E0,9.366321872E0
1.902300125E0,7.694000244E-2,5.303022308E0,7.874973907E0,9.494376199E0
1.912338125E0,7.229965210E-2,5.396428070E0,8.095914459E0,9.729876365E0
1.922376125E0,1.938468933E-1,5.562432861E0,8.318202209E0,1.000853256E1
1.932414125E0,2.959346008E-1,5.643264771E0,8.398884430E0,1.012300717E1
1.942453125E0,2.965333557E-1,5.647456055E0,8.356073456E0,1.008987887E1
1.952491125E0,2.230361938E-1,5.622757416E0,8.201145630E0,9.946051264E0
1.962529125E0,1.896556091E-1,5.632038116E0,8.094118195E0,9.862584445E0
1.972567125E0,1.935475159E-1,5.683680725E0,8.102351074E0,9.898978743E0
1.982606125E0,9.415420532E-2,5.846991119E0,8.101752319E0,9.991724616E0
1.992644125E0,-1.561253357E-1,6.116879883E0,7.970475311E0,1.004833674E1
2.002682125E0,-4.836442566E-1,6.416107635E0,7.707771606E0,1.004042290E1
2.012720125E0,-7.310797119E-1,6.689289551E0,7.414381714E0,1.001269836E1
2.022758125E0,-6.688092041E-1,6.902745667E0,7.165748749E0,9.972119064E0
2.032797125E0,-3.029699707E-1,6.875202942E0,6.971901855E0,9.796306538E0
2.042835125E0,9.669891357E-2,6.613547058E0,6.953789520E0,9.597059136E0
2.052873125E0,3.098556519E-1,6.298751678E0,7.293582916E0,9.641920711E0
2.062911125E0,3.535647583E-1,5.931864624E0,8.083190918E0,1.003244743E1
2.072950125E0,2.643502808E-1,5.519472198E0,9.070238342E0,1.062090759E1
2.082988125E0,-1.362167358E-2,5.145250397E0,1.017060013E1,1.139802150E1
2.093026125E0,-3.860472107E-1,4.873116302E0,1.110720245E1,1.213533029E1
2.103064125E0,-7.970924377E-1,4.593198395E0,1.163560364E1,1.253475568E1
2.113103125E0,-1.285826111E0,4.331392822E0,1.161030624E1,1.245847196E1
2.123141125E0,-1.760489044E0,4.208049316E0,1.104403381E1,1.194896161E1
2.133179125E0,-2.121837616E0,4.289030914E0,1.017778519E1,1.124656803E1
2.143217125E0,-2.260449371E0,4.441414032E0,9.259295197E0,1.051524310E1
2.153255125E0,-2.191592560E0,4.564458160E0,8.382268982E0,9.792843792E0
2.163294125E0,-2.061363373E0,4.625830536E0,7.643555145E0,9.169049152E0
2.173332125E0,-1.890718231E0,4.591551819E0,7.109615479E0,8.672012211E0
2.183370125E0,-1.738784180E0,4.572691040E0,6.843468933E0,8.412249450E0
2.193408125E0,-1.601519623E0,4.516557770E0,6.861431580E0,8.369193660E0
2.203447125E0,-1.440454559E0,4.466262360E0,7.130571899E0,8.536244163E0
2.213485125E0,-1.215622101E0,4.415068817E0,7.664511566E0,8.928342920E0
2.223523125E0,-8.312214661E-1,4.332440643E0,8.370144196E0,9.461515994E0
2.233561125E0,-3.667373657E-1,4.269272003E0,9.104517059E0,1.006247537E1
2.243599125E0,1.246907043E-1,4.269421692E0,9.832153931E0,1.071983024E1
2.253638125E0,5.638774109E-1,4.357588348E0,1.054317535E1,1.142213117E1
2.263676125E0,9.858499146E-1,4.445455627E0,1.120150635E1,1.209163844E1
2.273714125E0,1.284179535E0,4.495751038E0,1.178005325E1,1.267401077E1
2.283752125E0,1.401834869E0,4.460574188E0,1.205592957E1,1.293086620E1
2.293791125E0,1.369801483E0,4.241878967E0,1.193932205E1,1.274430478E1
2.303829125E0,1.082997894E0,3.902834015E0,1.125614273E1,1.196268143E1
2.313867125E0,5.513035583E-1,3.651806030E0,1.019020935E1,1.083881864E1
2.323905125E0,-7.185058594E-2,3.575464783E0,9.087153168E0,9.765524236E0
2.333943125E0,-6.271957397E-1,3.577560425E0,8.012088776E0,8.796924442E0
2.343982125E0,-9.937834167E-1,3.606300659E0,7.092700653E0,8.018691444E0
2.354020125E0,-1.173260193E0,3.702400818E0,6.397546234E0,7.484177250E0
2.364058125E0,-1.316661987E0,3.860322418E0,5.983656921E0,7.241535619E0
2.374096125E0,-1.372046814E0,4.115391998E0,5.821993103E0,7.260479836E0
2.384135125E0,-1.246607666E0,4.370461578E0,5.999972992E0,7.526927726E0
2.394173125E0,-1.008452911E0,4.583618317E0,6.427783356E0,7.958827364E0
2.404211125E0,-7.411088562E-1,4.704417114E0,6.993906097E0,8.461412720E0
2.414249125E0,-5.116360474E-1,4.799319763E0,7.473957825E0,8.896925716E0
2.424288125E0,-4.911286926E-1,4.868775330E0,7.772586823E0,9.184731162E0
2.434326125E0,-5.260061646E-1,4.855602722E0,7.865393829E0,9.258400530E0
2.444364125E0,-6.991960144E-1,4.787045288E0,7.768545227E0,9.151774287E0
2.454402125E0,-9.903405762E-1,4.733756104E0,7.543413391E0,8.960597463E0
2.464440125E0,-1.304237823E0,4.676125946E0,7.332651672E0,8.794030402E0
2.474479125E0,-1.569486237E0,4.630321198E0,7.245532837E0,8.740761267E0
2.484517125E0,-1.768871613E0,4.603227539E0,7.248227234E0,8.766721656E0
2.494555125E0,-1.895957336E0,4.576732635E0,7.381749573E0,8.889958526E0
2.504593125E0,-1.970352631E0,4.529131622E0,7.661218414E0,9.115349161E0
2.514632125E0,-1.976639557E0,4.499792633E0,8.047115936E0,9.429279536E0
2.524670125E0,-1.942809906E0,4.435725861E0,8.452173615E0,9.741119702E0
2.534708125E0,-1.908531189E0,4.446054382E0,8.916058960E0,1.014425937E1
2.544746125E0,-1.841470642E0,4.530628510E0,9.454339600E0,1.064434808E1
2.554784125E0,-1.667532349E0,4.644092560E0,9.941426697E0,1.109865868E1
2.564823458E0,-1.477427673E0,4.741839294E0,1.031804352E1,1.145119446E1
2.574861458E0,-1.356628876E0,4.838837585E0,1.050710037E1,1.164705754E1
2.584899458E0,-1.297501831E0,4.853656769E0,1.041953247E1,1.156754736E1
2.594937458E0,-1.302890625E0,4.799768829E0,1.009021729E1,1.124934619E1
2.604976458E0,-1.215622101E0,4.755910034E0,9.673932953E0,1.084810565E1
2.615014458E0,-1.111738129E0,4.747677155E0,9.303603058E0,1.050397210E1
2.625052458E0,-1.016236725E0,4.762346649E0,9.029073944E0,1.025850179E1
2.635090458E0,-8.818162537E-1,4.818330231E0,8.886570282E0,1.014716894E1
2.645129458E0,-7.089257812E-1,4.895270233E0,8.916657715E0,1.019671669E1
2.655167458E0,-5.975573730E-1,4.980892181E0,9.061406708E0,1.035738641E1
2.665205458E0,-5.520520020E-1,5.093458099E0,9.208101654E0,1.053741965E1
2.675243458E0,-4.260140991E-1,5.251080322E0,9.264683990E0,1.065784697E1
2.685281458E0,-2.957849121E-1,5.398523712E0,9.175170135E0,1.064966168E1
2.695320458E0,-2.032772827E-1,5.536985779E0,8.936416626E0,1.051470757E1
2.705358458E0,-1.386117554E-1,5.708079987E0,8.653654633E0,1.036759996E1
2.715396458E0,-1.425036621E-1,5.959257660E0,8.296048279E0,1.021555070E1
2.725434458E0,-7.095245361E-2,6.188431091E0,7.913743286E0,1.004634493E1
2.735473458E0,6.331832886E-2,6.396049347E0,7.554041290E0,9.898333005E0
2.745511458E0,2.215393066E-1,6.531966705E0,7.212301941E0,9.733086252E0
2.755549458E0,4.129911804E-1,6.470594330E0,7.050338745E0,9.578435630E0
2.765587458E0,5.396278381E-1,6.312822418E0,7.264243927E0,9.639095648E0
2.775626458E0,6.716532898E-1,5.986650696E0,7.971223755E0,9.991572091E0
2.785664458E0,7.725434875E-1,5.601351929E0,8.994795227E0,1.062442036E1
